time,flux
0.0,1000.0
0.05004170141784821,1001.571847395597
0.10008340283569642,1003.1421409791914
0.15012510425354464,1004.7093284747637
0.20016680567139283,1006.2718606767436
0.25020850708924103,1007.8281929814394
0.3002502085070893,1009.3767869139189
0.3502919099249375,1010.9161116488319
0.40033361134278567,1012.4446455236712
0.45037531276063386,1013.9608775429749
0.5004170141784821,1015.4633088719852
0.5504587155963303,1016.9504543182852
0.6005004170141786,1018.4208437999506
0.6505421184320267,1019.8730237987634
0.700583819849875,1021.3055587970526
0.7506255212677231,1022.7170326967411
0.8006672226855713,1024.106050219195
0.8507089241034196,1025.4712382844925
0.9007506255212677,1026.8112473687502
0.950792326939116,1028.1247528381616
1.0008340283569641,1029.4104562584323
1.0508757297748124,1030.6670866783159
1.1009174311926606,1031.8934018859827
1.1509591326105089,1033.0881896369779
1.2010008340283571,1034.2502688525574
1.2510425354462051,1035.3784907872143
1.3010842368640534,1036.4717401642436
1.3511259382819016,1037.5289362782228
1.40116763969975,1038.5490340633164
1.4512093411175981,1039.5310251263522
1.5012510425354462,1040.4739387436418
1.5512927439532944,1041.376842820569
1.6013344453711427,1042.2388448129868
1.651376146788991,1043.0590926095226
1.7014178482068392,1043.836775373911
1.7514595496246872,1044.571124346528
1.8015012510425354,1045.261413604328
1.8515429524603837,1045.9069607784395
1.901584653878232,1046.507127728703
1.9516263552960802,1047.0613211744899
2.0016680567139282,1047.5689932811754
2.0517097581317767,1048.0296422016877
2.1017514595496247,1048.442812572597
2.1517931609674728,1048.8080959642532
2.2018348623853212,1049.1251312845297
2.2518765638031693,1049.393605135773
2.3019182652210177,1049.6132521246036
2.3519599666388658,1049.783855124264
2.4020016680567142,1049.9052454892555
2.4520433694745623,1049.977303222047
2.5020850708924103,1049.9999570916975
2.5521267723102588,1049.9731847042674
2.602168473728107,1049.8970125249577
2.6522101751459553,1049.7715158519475
2.7022518765638033,1049.5968187419596
2.7522935779816513,1049.3730938876276
2.8023352793995,1049.1005624467846
2.852376980817348,1048.779493823843
2.9024186822351963,1048.410205403481
2.9524603836530443,1047.9930622369002
3.0025020850708923,1047.5284766809618
3.052543786488741,1047.0169079905627
3.102585487906589,1046.4588618646492
3.1526271893244373,1045.8548899463199
3.2026688907422853,1045.2055892775134
3.2527105921601334,1044.5116017088162
3.302752293577982,1043.7736132649768
3.35279399499583,1042.9923534667519
3.4028356964136783,1042.1685946097568
3.4528773978315264,1041.3031510010314
3.5029190992493744,1040.3968781540757
3.552960800667223,1039.4506719431527
3.603002502085071,1038.465467717694
3.6530442035029194,1037.4422393776815
3.7030859049207674,1036.3819984109234
3.7531276063386154,1035.2857928931703
3.803169307756464,1034.1547064520673
3.853211009174312,1032.9898571959582
3.9032527105921604,1031.7923966086069
3.9532944120100084,1030.563508410926
4.0033361134278564,1029.3044073908375
4.053377814845705,1028.0163382024236
4.103419516263553,1026.7005741355542
4.153461217681401,1025.358415857206
4.2035029190992494,1023.9911901257194
4.253544620517098,1022.6002484792643
4.3035863219349455,1021.1869658998088
4.353628023352794,1019.7527394539135
4.4036697247706424,1018.2989869116958
4.453711426188491,1016.8271453453266
4.5037531276063385,1015.3386697084472
4.553794829024187,1013.8350313979101
4.6038365304420354,1012.3177167992649
4.653878231859883,1010.7882258174269
4.7039199332777315,1009.2480703939832
4.75396163469558,1007.6987730125984
4.8040033361134284,1006.141865194
4.854045037531276,1004.5788859820309
4.9040867389491245,1003.0113804222636
4.954128440366973,1001.4408980346833
5.004170141784821,999.8689912819469
5.054211843202669,998.2972140347332
5.1042535446205175,996.7271200357014
5.154295246038365,995.1602613635763
5.204336947456214,993.5981868988778
5.254378648874062,992.0424407928123
5.3044203502919105,990.4945609408395
5.354462051709758,988.9560774624223
5.404503753127607,987.4285111884643
5.454545454545455,985.9133721579285
5.504587155963303,984.4121581251251
5.554628857381151,982.9263530791418
5.604670558799,981.4574257768826
5.654712260216847,980.0068282911632
5.704753961634696,978.5759945752989
5.754795663052544,977.1663390456052
5.804837364470393,975.7792551832102
5.85487906588824,974.416114156562
5.904920767306089,973.0782634659932
5.954962468723937,971.7670256116824
6.005004170141785,970.4836967863273
6.055045871559633,969.2295455938254
6.105087572977482,968.0058117952258
6.155129274395329,966.8137050831933
6.205170975813178,965.6544038861955
6.255212677231026,964.5290542035956
6.305254378648875,963.4387684728026
6.355296080066722,962.3846244695982
6.405337781484571,961.3676642427263
6.455379482902419,960.388893083802
6.505421184320267,959.4492785335542
6.555462885738115,958.5497494253862
6.605504587155964,957.6911949672001
6.655546288573812,956.8744638623917
6.70558798999166,956.1003634708849
6.755629691409508,955.3696590110353
6.805671392827357,954.6830728031927
6.855713094245204,954.0412835556676
6.905754795663053,953.4449256938115
6.955796497080901,952.8945887328699
7.005838198498749,952.3908166952322
7.055879899916597,951.9341075726502
7.105921601334446,951.5249128339617
7.155963302752294,951.1636369788009
7.206005004170142,950.8506371377399
7.25604670558799,950.5862227192566
7.306088407005839,950.3706551038758
7.356130108423686,950.2041473857878
7.406171809841535,950.0868641621995
7.456213511259383,950.0189213706255
7.506255212677231,950.0003861742813
7.556296914095079,950.03127689569
7.606338615512928,950.1115629985708
7.656380316930776,950.2411651180242
7.706422018348624,950.419955138987
7.756463719766472,950.6477563228767
7.806505421184321,950.9243434823022
7.856547122602168,951.2494432036683
7.906588824020017,951.6227341174509
7.956630525437865,952.04384721588
8.006672226855713,952.5123662177131
8.056713928273561,953.02782797974
8.10675562969141,953.5897229546122
8.156797331109258,954.1974956945435
8.206839032527107,954.8505454003845
8.256880733944955,955.5482265155282
8.306922435362802,956.2898493640595
8.35696413678065,957.0746808325181
8.407005838198499,957.9019450945997
8.457047539616347,958.7708243780805
8.507089241034196,959.6804597732068
8.557130942452044,960.6299520817494
8.607172643869891,961.6183627058836
8.65721434528774,962.6447145760189
8.707256046705588,963.7079931166571
8.757297748123436,964.807147249326
8.807339449541285,965.9410904315987
8.857381150959133,967.1087017311681
8.907422852376982,968.3088269339189
8.957464553794829,969.5402796848965
9.007506255212677,970.8018426610516
9.057547956630525,972.0922687745942
9.107589658048374,973.410282405773
9.157631359466222,974.7545806638586
9.207673060884071,976.1238346750845
9.25771476230192,977.5166908962738
9.307756463719766,978.9317724528516
9.357798165137615,980.3676804999216
9.407839866555463,981.8229956050599
9.457881567973311,983.2962791514616
9.50792326939116,984.7860747600505
9.557964970809008,986.290909729148
9.608006672226857,987.8092964902764
9.658048373644704,989.3397340786596
9.708090075062552,990.8807096169656
9.7581317764804,992.430699810825
9.808173477898249,993.9881724546468
9.858215179316097,995.5515879462444
9.908256880733946,997.1194008087708
9.958298582151793,998.6900612184643
10.008340283569641,1000.2620165366886
10.05838198498749,1001.8337128447567
10.108423686405338,1003.4035964800196
10.158465387823187,1004.9701155717029
10.208507089241035,1006.5317215749704
10.258548790658883,1008.0868708017023
10.30859049207673,1009.6340259464694
10.358632193494579,1011.1716576062008
10.408673894912427,1012.698245792038
10.458715596330276,1014.2122814318832
10.508757297748124,1015.712267862157
10.558798999165973,1017.1967223072882
10.608840700583821,1018.6641773454771
10.658882402001668,1020.1131823592796
10.708924103419516,1021.5423049695796
10.758965804837365,1022.9501324515344
10.809007506255213,1024.3352731310886
10.859049207673062,1025.6963577606807
10.90909090909091,1027.0320408727798
10.959132610508757,1028.3410021099155
11.009174311926605,1029.6219475298851
11.059216013344454,1030.8736108848493
11.109257714762302,1032.0947548730508
11.15929941618015,1033.28417236192
11.209341117598,1034.440687581356
11.259382819015848,1035.563157286007
11.309424520433694,1036.650471885397
11.359466221851543,1037.7015565407855
11.409507923269391,1038.7153722276726
11.45954962468724,1039.6909167629028
11.509591326105088,1040.627225795349
11.559633027522937,1041.523373759198
11.609674728940785,1042.3784747888965
11.659716430358632,1043.1916835948525
11.70975813177648,1043.9621962990266
11.759799833194329,1044.689251229585
11.809841534612177,1045.3721296738322
11.859883236030026,1046.010156588679
11.909924937447874,1046.602701267937
11.959966638865723,1047.1491779657908
12.01000834028357,1047.649046475822
12.060050041701418,1048.1018126650165
12.110091743119266,1048.507028962229
12.160133444537115,1048.8642948006184
12.210175145954963,1049.173257013618
12.260216847372812,1049.4336101840502
12.310258548790658,1049.6450969460395
12.360300250208507,1049.8075082394253
12.410341951626355,1049.920683516423
12.460383653044204,1049.98451090033
12.510425354462052,1049.998927296118
12.5604670558799,1049.9639184528055
12.61050875729775,1049.8795189775437
12.660550458715596,1049.7458123014078
12.710592160133444,1049.5629305969217
12.760633861551293,1049.3310546474038
12.810675562969141,1049.0504136682564
12.86071726438699,1048.7212850803814
12.910758965804838,1048.3439942359416
12.960800667222687,1047.918914096743
13.010842368640533,1047.4464648655508
13.060884070058382,1046.9271135707086
13.11092577147623,1046.3613736044697
13.160967472894079,1045.749804215494
13.211009174311927,1045.093009956017
13.261050875729776,1044.391640084235
13.311092577147624,1043.646387922494
13.361134278565471,1042.8579901719252
13.41117597998332,1042.0272261841956
13.461217681401168,1041.1549171910983
13.511259382819016,1040.2419254927443
13.561301084236865,1039.2891536051561
13.611342785654713,1038.297543368107
13.66138448707256,1037.2680750140883
13.711426188490409,1036.2017661993234
13.761467889908257,1035.0996709977894
13.811509591326105,1033.962878859236
13.861551292743954,1032.7925135322378
13.911592994161802,1031.5897319533378
13.96163469557965,1030.3557231033874
14.011676396997498,1029.091706832206
14.061718098415346,1027.79893265273
14.111759799833195,1026.4786785058343
14.161801501251043,1025.1322494970566
14.211843202668891,1023.7609766064659
14.26188490408674,1022.3662153729535
14.311926605504588,1020.9493445542489
14.361968306922435,1019.5117647639803
14.412010008340284,1018.0548970871333
14.462051709758132,1016.5801816752702
14.51209341117598,1015.0890763229035
14.562135112593829,1013.5830550264275
14.612176814011677,1012.0636065270352
14.662218515429526,1010.5322328390588
14.712260216847373,1008.9904477651891
14.762301918265221,1007.4397754000423
14.81234361968307,1005.8817486235534
14.862385321100918,1004.3179075856839
14.912427022518767,1002.7497981839438
14.962468723936615,1001.1789705352319
15.012510425354462,999.6069774435045
15.06255212677231,998.0353728647889
15.112593828190159,996.4657103710568
15.162635529608007,994.8995416144791
15.212677231025856,993.3384147935759
15.262718932443704,991.7838731227833
15.312760633861553,990.2374533069454
15.3628023352794,988.7006840222415
15.412844036697248,987.17508440505
15.462885738115096,985.6621625502427
15.512927439532945,984.1634140203938
15.562969140950793,982.6803203673774
15.613010842368642,981.2143476678151
15.66305254378649,979.7669450738208
15.713094245204337,978.3395433804768
15.763135946622185,976.9335536114548
15.813177648040034,975.5503656241831
15.863219349457882,974.1913467359361
15.91326105087573,972.8578403722056
15.963302752293579,971.5511647386899
16.013344453711426,970.2726115182131
16.063386155129276,969.0234445938632
16.113427856547123,967.8048987996108
16.163469557964973,966.6181786996431
16.21351125938282,965.464457397622
16.263552960800666,964.3448753770396
16.313594662218517,963.2605393738208
16.363636363636363,962.2125212822871
16.413678065054214,961.2018570955595
16.46371976647206,960.229545881454
16.51376146788991,959.2965487948755
16.563803169307757,958.4037881276934
16.613844870725604,957.5521463970293
16.663886572143454,956.7424654728684
16.7139282735613,955.9755457458476
16.76396997497915,955.2521453360495
16.814011676396998,954.5729793435801
16.864053377814844,953.9387191416744
16.914095079232695,953.3499917130265
16.96413678065054,952.8073790300006
17.01417848206839,952.3114174793362
17.06422018348624,951.8625973319163
17.11426188490409,951.4613622581212
17.164303586321935,951.1081088892497
17.214345287739782,950.8031864254378
17.264386989157632,950.546896290466
17.31442869057548,950.3394918337934
17.36447039199333,950.1811780801162
17.414512093411176,950.0721115266942
17.464553794829026,950.0123999886503
17.514595496246873,950.0021024923916
17.56463719766472,950.0412292172608
17.61467889908257,950.1297414854736
17.664720600500416,950.2675518003523
17.714762301918267,950.454523932819
17.764804003336113,950.6904730560615
17.814845704753964,950.975165928239
17.86488740617181,951.3083211230481
17.914929107589657,951.6896093079204
17.964970809007507,952.1186535695751
18.015012510425354,952.5950297866092
18.065054211843204,953.1182670487508
18.11509591326105,953.6878481223674
18.1651376146789,954.3032099617647
18.215179316096748,954.9637442657707
18.265221017514595,955.6687980790591
18.315262718932445,956.417674437611
18.36530442035029,957.2096330576827
18.415346121768142,958.0438910675955
18.46538782318599,958.9196237816241
18.51542952460384,959.8359655152204
18.565471226021685,960.7920104407654
18.615512927439532,961.7868134830022
18.665554628857382,962.8193912532693
18.71559633027523,963.8887230216035
18.76563803169308,964.9937517257605
18.815679733110926,966.1333850161462
18.865721434528776,967.3064963356344
18.915763135946623,968.5119260331966
18.96580483736447,969.7484825102475
19.01584653878232,971.014943398572
19.065888240200167,972.3100567686663
19.115929941618017,973.6325423673045
19.165971643035864,974.9810928831007
19.216013344453714,976.3543752388217
19.26605504587156,977.751031909167
19.316096747289407,979.1696822627192
19.366138448707257,980.6089239267332
19.416180150125104,982.0673341734182
19.466221851542954,983.5434713263414
19.5162635529608,985.0358761855626
19.566305254378648,986.5430734700907
19.616346955796498,988.0635732762382
19.666388657214345,989.595872550429
19.716430358632195,991.1384565750063
19.76647206005004,992.68980046557
19.816513761467892,994.248370678365
19.86655546288574,995.8126265262289
19.916597164303585,997.3810217016011
19.966638865721436,998.9520058050883
20.016680567139282,1000.5240258780744
20.066722268557132,1002.0955279378609
20.11676396997498,1003.664958513818
20.16680567139283,1005.2307661830322
20.216847372810676,1006.7914031039273
20.266889074228523,1008.345326546346
20.316930775646373,1009.8910004165793
20.36697247706422,1011.4268967758344
20.41701417848207,1012.9514973506425
20.467055879899917,1014.4632950337109
20.517097581317767,1015.9607953737386
20.567139282735614,1017.4425180527194
20.61718098415346,1018.9069983492752
20.66722268557131,1020.3527885865715
20.717264386989157,1021.7784595633823
20.767306088407008,1023.1826019668943
20.817347789824854,1024.563827765848
20.867389491242704,1025.9207715826428
20.91743119266055,1027.2520920430493
20.967472894078398,1028.5564731021914
21.017514595496248,1029.8326253454914
21.067556296914095,1031.0792872632896
21.117597998331945,1032.2952264978796
21.16763969974979,1033.479241061726
21.217681401167642,1034.63016052566
21.26772310258549,1035.7468471758789
21.317764804003335,1036.8281971386064
21.367806505421186,1037.8731414713004
21.417848206839032,1038.8806472193298
21.467889908256883,1039.8497184370779
21.51793160967473,1040.7793971724595
21.56797331109258,1041.6687644138829
21.618015012510426,1042.5169409987147
21.668056713928273,1043.3230884823572
21.718098415346123,1044.0864099670712
21.76814011676397,1044.8061508897301
21.81818181818182,1045.481599767726
21.868223519599667,1046.112088902288
21.918265221017514,1046.6969950385203
21.968306922435364,1047.2357399815055
22.01834862385321,1047.7277911678657
22.06839032527106,1048.1726621922146
22.118432026688907,1048.5699132879827
22.168473728106758,1048.919151762137
22.218515429524604,1049.2200323833692
22.26855713094245,1049.4722577233658
22.3185988323603,1049.6755784508223
22.368640533778148,1049.8297935779156
22.418682235196,1049.9347506589843
22.468723936613845,1049.9903459412262
22.518765638031695,1049.9965244672599
22.568807339449542,1049.9532801294515
22.61884904086739,1049.8606556759532
22.66889074228524,1049.7187426684445
22.718932443703086,1049.5276813916216
22.768974145120936,1049.2876607145222
22.819015846538782,1048.998917903824
22.869057547956633,1048.6617383892994
22.91909924937448,1048.2764554816622
22.969140950792326,1047.8434500430797
23.019182652210176,1047.3631501106818
23.069224353628023,1046.836030473435
23.119266055045873,1046.2626122027998
23.16930775646372,1045.6434621376407
23.21934945788157,1044.979192323888
23.269391159299417,1044.2704594095173
23.319432860717264,1043.5179639954345
23.369474562135114,1042.7224499429135
23.41951626355296,1041.8847036382704
23.46955796497081,1041.0055532155006
23.519599666388658,1040.0858677376461
23.569641367806508,1039.126556337704
23.619683069224354,1038.128567319926
23.6697247706422,1037.0928872223935
23.71976647206005,1036.0205398418002
23.769808173477898,1034.9125852214022
23.81984987489575,1033.7701186031372
23.869891576313595,1032.5942693449501
23.919933277731445,1031.3861998043928
23.969974979149292,1030.147104189604
24.02001668056714,1028.878207378803
24.07005838198499,1027.5807637094651
24.120100083402836,1026.2560557383786
24.170141784820686,1024.9053929738018
24.220183486238533,1023.530110580981
24.270225187656383,1022.1315680623051
24.32026688907423,1020.7111479134016
24.370308590492076,1019.2702542565049
24.420350291909926,1017.8103114524429
24.470391993327773,1016.3327626926215
24.520433694745623,1014.8390685723912
24.57047539616347,1013.3307056472106
24.620517097581317,1011.809164973034
24.670558798999167,1010.2759506323619
24.720600500417014,1008.7325782474186
24.770642201834864,1007.1805734819187
24.82068390325271,1005.6214705329095
24.87072560467056,1004.0568106141766
24.920767306088408,1002.4881404327157
24.970809007506254,1000.9170106597703
25.020850708924105,999.3449743979546
25.07089241034195,997.7735856459708
25.1209341117598,996.2043977624402
25.170975813177648,994.6389619303687
25.2210175145955,993.0788256237622
25.271059216013345,991.5255310779074
25.321100917431192,989.980613764833
25.371142618849042,988.445600875455
25.42118432026689,986.9220098099097
25.47122602168474,985.4113466775632
25.521267723102586,983.9151048081842
25.571309424520436,982.4347632757472
25.621351125938283,980.9717854363314
25.67139282735613,979.527617481554
25.72143452877398,978.1036870089715
25.771476230191826,976.7014016108643
25.821517931609677,975.3221474827935
25.871559633027523,973.9672880533117
25.921601334445374,972.6381626361773
25.97164303586322,971.3360851064093
26.021684737281067,970.0623426014868
26.071726438698917,968.8181942489798
26.121768140116764,967.6048699218708
26.171809841534614,966.423569022791
26.22185154295246,965.2754592983812
26.27189324437031,964.1616756849431
26.321934945788158,963.0833191865258
26.371976647206004,962.0414557865547
26.422018348623855,961.0371153940782
26.4720600500417,960.0712908256771
26.52210175145955,959.144936824039
26.5721434528774,958.2589691141706
26.62218515429525,957.414263498179
26.672226855713095,956.6116549895196
26.722268557130942,955.851936987563
26.772310258548792,955.1358604932991
26.82235195996664,954.4641333669533
26.87239366138449,953.837419628248
26.922435362802336,953.2563388000023
26.972477064220183,952.721465295717
27.022518765638033,952.2333278517526
27.07256046705588,951.792409004659
